-0.078
-0.081
-0.088
-0.115
-0.159
-0.206
-0.206
-0.169
-0.122
-0.098
-0.098
-0.105
-0.095
-0.071
-0.054
-0.061
-0.081
-0.098
-0.108
-0.111
-0.095
-0.074
-0.057
-0.068
-0.088
-0.118
-0.132
-0.122
-0.091
-0.074
-0.078
-0.088
-0.071
-0.057
-0.081
-0.115
-0.122
-0.122
-0.122
-0.122
-0.135
-0.149
-0.155
-0.145
-0.135
-0.125
-0.101
-0.071
-0.057
-0.061
-0.071
-0.084
-0.088
-0.084
-0.068
-0.051
-0.061
-0.091
-0.108
-0.101
-0.084
-0.095
-0.139
-0.166
-0.152
-0.125
-0.105
-0.105
-0.098
-0.095
-0.098
-0.108
-0.115
-0.128
-0.132
-0.115
-0.088
-0.081
-0.084
-0.088
-0.101
-0.122
-0.142
-0.159
-0.142
-0.118
-0.095
-0.088
-0.084
-0.105
-0.125
-0.118
-0.084
-0.068
-0.064
-0.068
-0.074
-0.078
-0.098
-0.118
-0.122
-0.122
-0.128
-0.139
-0.152
-0.149
-0.128
-0.108
-0.088
-0.088
-0.098
-0.115
-0.091
-0.071
-0.057
-0.057
-0.064
-0.095
-0.122
-0.128
-0.111
-0.095
-0.091
-0.108
-0.122
-0.118
-0.111
-0.111
-0.111
-0.108
-0.084
-0.074
-0.084
-0.105
-0.122
-0.149
-0.176
-0.162
-0.125
-0.108
-0.122
-0.125
-0.125
-0.118
-0.101
-0.081
-0.071
-0.068
-0.071
-0.088
-0.098
-0.108
-0.108
-0.105
-0.084
-0.064
-0.061
-0.081
-0.101
-0.111
-0.111
-0.115
-0.125
-0.122
-0.101
-0.088
-0.081
-0.088
-0.081
-0.091
-0.108
-0.125
-0.142
-0.142
-0.128
-0.108
-0.105
-0.125
-0.132
-0.132
-0.111
-0.081
-0.057
-0.071
-0.115
-0.132
-0.118
-0.108
-0.108
-0.115
-0.091
-0.064
-0.061
-0.088
-0.111
-0.122
-0.125
-0.132
-0.125
-0.108
-0.088
-0.071
-0.061
-0.071
-0.081
-0.068
-0.047
-0.057
-0.078
-0.081
-0.061
-0.027
-0.014
-0.024
-0.044
-0.071
-0.068
-0.014
0.034
0.041
0.01
-0.007
0
0.024
0.034
0.017
-0.01
-0.03
-0.03
-0.03
-0.027
-0.027
-0.037
-0.054
-0.064
-0.061
-0.041
-0.047
-0.078
-0.105
-0.125
-0.122
-0.108
-0.118
-0.125
-0.139
-0.149
-0.149
-0.118
-0.105
-0.125
-0.145
-0.152
-0.149
-0.149
-0.152
-0.152
-0.135
-0.081
0.01
0.142
0.277
0.409
0.527
0.655
0.733
0.709
0.618
0.527
0.436
0.331
0.179
-0.02
-0.253
-0.493
-0.682
-0.764
-0.767
-0.753
-0.76
-0.794
-0.845
-0.865
-0.858
-0.865
-0.892
-0.912
-0.922
-0.912
-0.905
-0.922
-0.936
-0.936
-0.902
-0.861
-0.831
-0.794
-0.747
-0.682
-0.611
-0.534
-0.446
-0.365
-0.284
-0.216
-0.179
-0.166
-0.166
-0.169
-0.182
-0.172
-0.125
-0.098
-0.142
-0.172
-0.118
-0.014
0.051
0.057
0.02
-0.02
-0.051
-0.054
-0.074
-0.091
-0.081
-0.034
0.007
0.024
0.007
-0.027
-0.054
-0.051
-0.03
-0.003
0
0.03
0.074
0.084
0.064
0.03
0
0.017
0.064
0.108
0.145
0.182
0.189
0.176
0.145
0.128
0.152
0.206
0.257
0.294
0.324
0.348
0.348
0.355
0.382
0.419
0.446
0.456
0.476
0.52
0.551
0.571
0.595
0.611
0.625
0.639
0.618
0.568
0.547
0.537
0.527
0.527
0.503
0.422
0.351
0.345
0.372
0.372
0.307
0.247
0.236
0.257
0.26
0.236
0.189
0.152
0.108
0.057
0.02
0
-0.02
-0.03
-0.027
0
0.024
0.02
-0.02
-0.068
-0.078
-0.047
-0.02
-0.027
-0.054
-0.061
-0.064
-0.078
-0.095
-0.125
-0.142
-0.115
-0.068
-0.051
-0.057
-0.064
-0.078
-0.091
-0.105
-0.108
-0.105
-0.078
-0.051
-0.041
-0.084
-0.128
-0.132
-0.078
-0.02
0.003
-0.027
-0.098
-0.139
-0.115
-0.081
-0.081
-0.091
-0.081
-0.064
-0.047
-0.057
-0.084
-0.101
-0.081
-0.054
-0.061
-0.084
-0.108
-0.098
-0.071
-0.057
-0.051
-0.044
-0.034
-0.054
-0.101
-0.139
-0.132
-0.105
-0.061
-0.041
-0.041
-0.054
-0.061
-0.084
-0.105
-0.115
-0.115
-0.118
-0.108
-0.095
-0.078
-0.064
-0.054
-0.054
-0.054
-0.078
-0.098
-0.105
-0.095
-0.078
-0.081
-0.095
-0.091
-0.095
-0.095
-0.098
-0.095
-0.101
-0.108
-0.122
-0.125
-0.111
-0.095
-0.101
-0.101
-0.101
-0.095
-0.115
-0.125
-0.122
-0.118
-0.101
-0.068
-0.041
-0.047
-0.061
-0.071
-0.095
-0.111
-0.108
-0.088
-0.084
-0.098
-0.105
-0.088
-0.064
-0.061
-0.088
-0.118
-0.108
-0.081
-0.064
-0.074
-0.088
-0.071
-0.051
-0.051
-0.071
-0.101
-0.128
-0.128
-0.108
-0.081
-0.054
-0.044
-0.068
-0.101
-0.118
-0.118
-0.108
-0.101
-0.111
-0.111
-0.095
-0.081
-0.091
-0.095
-0.078
-0.081
-0.108
-0.101
-0.061
-0.027
-0.054
-0.095
-0.108
-0.101
-0.122
-0.145
-0.132
-0.091
-0.054
-0.054
-0.074
-0.074
-0.084
-0.108
-0.122
-0.111
-0.101
-0.088
-0.061
-0.027
-0.03
-0.068
-0.108
-0.135
-0.132
-0.095
-0.064
-0.078
-0.108
-0.145
-0.166
-0.145
-0.108
-0.084
-0.095
-0.098
-0.084
-0.068
-0.044
-0.037
-0.057
-0.095
-0.142
-0.155
-0.115
-0.061
-0.037
-0.037
-0.061
-0.071
-0.054
-0.027
-0.027
-0.047
-0.081
-0.088
-0.051
0.007
0.041
0.03
-0.003
-0.041
-0.074
-0.078
-0.054
-0.014
0.007
0.007
0.003
0.03
0.057
0.054
0.003
-0.037
-0.054
-0.057
-0.061
-0.047
-0.03
-0.02
-0.034
-0.057
-0.095
-0.139
-0.172
-0.179
-0.162
-0.128
-0.105
-0.084
-0.074
-0.054
-0.074
-0.125
-0.179
-0.172
-0.111
-0.054
-0.047
-0.081
-0.125
-0.139
-0.101
-0.034
0
0.017
0.068
0.162
0.274
0.405
0.554
0.713
0.77
0.709
0.598
0.486
0.361
0.199
-0.007
-0.226
-0.449
-0.642
-0.76
-0.821
-0.878
-0.865
-0.818
-0.791
-0.828
-0.902
-0.956
-0.98
-0.986
-0.997
-1.003
-1.007
-1.003
-0.997
-0.966
-0.939
-0.899
-0.828
-0.753
-0.703
-0.659
-0.588
-0.5
-0.426
-0.341
-0.264
-0.223
-0.189
-0.172
-0.149
-0.125
-0.098
-0.095
-0.098
-0.118
-0.108
-0.088
-0.061
-0.041
-0.02
0.003
0.02
0
-0.054
-0.108
-0.101
-0.044
0.024
0.041
0.02
-0.003
0.003
0.014
0.017
0.007
0.02
0.034
0.047
0.054
0.071
0.071
0.064
0.078
0.105
0.128
0.155
0.166
0.162
0.152
0.152
0.162
0.182
0.193
0.193
0.186
0.206
0.267
0.345
0.392
0.416
0.409
0.422
0.459
0.48
0.473
0.503
0.571
0.639
0.659
0.652
0.632
0.632
0.659
0.696
0.699
0.655
0.584
0.527
0.507
0.493
0.48
0.473
0.446
0.409
0.375
0.338
0.301
0.284
0.274
0.274
0.26
0.223
0.169
0.101
0.037
0.007
0.03
0.078
0.081
0.041
0
-0.01
-0.01
-0.01
-0.017
-0.034
-0.051
-0.068
-0.081
-0.088
-0.088
-0.078
-0.071
-0.074
-0.071
-0.054
-0.037
-0.02
-0.02
-0.034
-0.057
-0.071
-0.054
-0.024
-0.017
-0.037
-0.037
-0.041
-0.071
-0.095
-0.105
-0.098
-0.098
-0.105
-0.098
-0.061
-0.027
-0.007
-0.027
-0.054
-0.071
-0.081
-0.084
-0.091
-0.101
-0.101
-0.088
-0.068
-0.061
-0.051
-0.041
-0.034
-0.034
-0.051
-0.071
-0.078
-0.084
-0.095
-0.088
-0.061
-0.047
-0.068
-0.088
-0.081
-0.074
-0.078
-0.064
-0.041
-0.03
-0.044
-0.091
-0.139
-0.125
-0.061
-0.003
-0.003
-0.041
-0.071
-0.081
-0.074
-0.064
-0.044
-0.03
-0.03
-0.057
-0.088
-0.108
-0.098
-0.071
-0.061
-0.064
-0.078
-0.101
-0.108
-0.098
-0.101
-0.098
-0.088
-0.074
-0.047
-0.02
-0.017
-0.047
-0.081
-0.105
-0.091
-0.074
-0.061
-0.068
-0.054
-0.024
-0.007
-0.01
-0.003
0
-0.014
-0.054
-0.088
-0.081
-0.064
-0.064
-0.084
-0.101
-0.111
-0.125
-0.135
-0.139
-0.128
-0.111
-0.098
-0.098
-0.098
-0.091
-0.081
-0.071
-0.074
-0.078
-0.071
-0.064
-0.047
-0.01
0.014
-0.01
-0.061
-0.111
-0.135
-0.135
-0.108
-0.084
-0.068
-0.071
-0.095
-0.135
-0.155
-0.132
-0.081
-0.057
-0.057
-0.068
-0.074
-0.064
-0.047
-0.061
-0.074
-0.071
-0.047
-0.044
-0.084
-0.122
-0.125
-0.105
-0.074
-0.054
-0.037
-0.051
-0.081
-0.105
-0.108
-0.095
-0.078
-0.084
-0.095
-0.088
-0.074
-0.071
-0.078
-0.095
-0.108
-0.095
-0.081
-0.064
-0.03
-0.01
-0.044
-0.098
-0.125
-0.115
-0.095
-0.115
-0.145
-0.128
-0.064
-0.007
0.01
-0.017
-0.044
-0.054
-0.051
-0.051
-0.047
-0.041
-0.037
-0.037
-0.03
-0.037
-0.024
-0.007
-0.017
-0.034
-0.017
0.017
0.034
0.03
0.02
0.02
0.024
0.034
0.027
-0.007
-0.057
-0.088
-0.081
-0.068
-0.057
-0.054
-0.054
-0.064
-0.071
-0.081
-0.098
-0.132
-0.162
-0.149
-0.105
-0.095
-0.132
-0.155
-0.155
-0.149
-0.172
-0.193
-0.169
-0.132
-0.111
-0.122
-0.142
-0.145
-0.118
-0.051
0.051
0.159
0.257
0.355
0.493
0.639
0.686
0.611
0.493
0.382
0.287
0.162
-0.02
-0.25
-0.493
-0.723
-0.858
-0.899
-0.912
-0.922
-0.916
-0.885
-0.858
-0.872
-0.956
-1.037
-1.051
-1.007
-0.956
-0.943
-0.949
-0.936
-0.916
-0.889
-0.872
-0.861
-0.848
-0.807
-0.72
-0.601
-0.497
-0.419
-0.348
-0.287
-0.226
-0.179
-0.152
-0.152
-0.186
-0.223
-0.206
-0.159
-0.118
-0.115
-0.135
-0.145
-0.125
-0.088
-0.068
-0.061
-0.051
-0.027
0
0.01
0
0
-0.01
-0.034
-0.057
-0.054
-0.03
0
0.02
0.024
0.01
-0.014
-0.041
-0.044
-0.01
0.017
0.01
0
0.02
0.034
0.014
-0.034
-0.02
0.081
0.193
0.247
0.236
0.176
0.139
0.149
0.199
0.257
0.314
0.348
0.358
0.378
0.416
0.429
0.436
0.456
0.483
0.507
0.52
0.534
0.541
0.534
0.534
0.534
0.537
0.537
0.527
0.49
0.453
0.419
0.355
0.294
0.294
0.348
0.378
0.351
0.311
0.257
0.23
0.23
0.233
0.203
0.135
0.047
-0.017
-0.051
-0.047
-0.024
0
0
-0.01
-0.044
-0.074
-0.081
-0.078
-0.071
-0.074
-0.081
-0.078
-0.084
-0.115
-0.142
-0.115
-0.051
-0.01
-0.03
-0.081
-0.115
-0.125
-0.135
-0.132
-0.111
-0.074
-0.044
-0.044
-0.074
-0.111
-0.132
-0.139
-0.145
-0.145
-0.152
-0.155
-0.179
-0.186
-0.169
-0.135
-0.105
-0.105
-0.122
-0.142
-0.132
-0.118
-0.139
-0.142
-0.105
-0.068
-0.074
-0.098
-0.118
-0.122
-0.098
-0.081
-0.084
-0.105
-0.122
-0.101
-0.071
-0.057
-0.064
-0.081
-0.108
-0.139
-0.149
-0.135
-0.108
-0.098
-0.128
-0.159
-0.142
-0.111
-0.135
-0.172
-0.169
-0.122
-0.071
-0.061
-0.091
-0.128
-0.122
-0.084
-0.081
-0.115
-0.139
-0.118
-0.091
-0.068
-0.061
-0.057
-0.064
-0.071
-0.084
-0.098
-0.108
-0.111
-0.122
-0.125
-0.118
-0.101
-0.098
-0.122
-0.149
-0.166
-0.176
-0.216
-0.216
-0.166
-0.101
-0.084
-0.115
-0.142
-0.139
-0.128
-0.132
-0.128
-0.108
-0.101
-0.091
-0.078
-0.071
-0.084
-0.118
-0.155
-0.182
-0.179
-0.159
-0.142
-0.139
-0.132
-0.122
-0.101
-0.081
-0.088
-0.098
-0.108
-0.111
-0.095
-0.081
-0.095
-0.125
-0.152
-0.169
-0.159
-0.135
-0.135
-0.162
-0.199
-0.196
-0.142
-0.101
-0.101
-0.135
-0.145
-0.125
-0.108
-0.122
-0.135
-0.135
-0.122
-0.118
-0.118
-0.135
-0.149
-0.142
-0.135
-0.135
-0.139
-0.149
-0.139
-0.125
-0.122
-0.108
-0.108
-0.118
-0.125
-0.132
-0.142
-0.142
-0.152
-0.159
-0.155
-0.155
-0.159
-0.162
-0.166
-0.172
-0.199
-0.25
-0.247
-0.139
-0.03
0.003
-0.034
-0.095
-0.145
-0.166
-0.145
-0.091
-0.047
-0.034
-0.037
-0.037
-0.051
-0.068
-0.061
-0.044
-0.044
-0.044
-0.037
-0.047
-0.061
-0.064
-0.071
-0.084
-0.098
-0.111
-0.105
-0.101
-0.122
-0.172
-0.189
-0.145
-0.095
-0.108
-0.169
-0.199
-0.182
-0.159
-0.162
-0.159
-0.149
-0.155
-0.166
-0.169
-0.162
-0.169
-0.199
-0.236
-0.243
-0.236
-0.223
-0.193
-0.132
-0.054
0.034
0.135
0.267
0.402
0.537
0.635
0.649
0.541
0.365
0.213
0.135
0.054
-0.098
-0.324
-0.547
-0.733
-0.834
-0.872
-0.912
-0.936
-0.912
-0.865
-0.838
-0.831
-0.865
-0.899
-0.909
-0.909
-0.922
-0.916
-0.912
-0.919
-0.939
-0.936
-0.916
-0.889
-0.855
-0.821
-0.77
-0.716
-0.662
-0.598
-0.507
-0.422
-0.341
-0.267
-0.226
-0.203
-0.176
-0.169
-0.189
-0.206
-0.189
-0.152
-0.118
-0.091
-0.068
-0.051
-0.054
-0.061
-0.081
-0.132
-0.206
-0.223
-0.159
-0.088
-0.047
-0.054
-0.078
-0.095
-0.078
-0.054
-0.051
-0.057
-0.044
-0.02
-0.007
-0.007
-0.003
0
0
0.007
0.003
0.003
0.024
0.061
0.091
0.105
0.125
0.149
0.182
0.206
0.209
0.199
0.196
0.209
0.236
0.28
0.351
0.402
0.392
0.361
0.372
0.422
0.463
0.47
0.473
0.48
0.493
0.507
0.514
0.517
0.514
0.5
0.493
0.476
0.443
0.402
0.378
0.378
0.395
0.392
0.338
0.247
0.179
0.166
0.142
0.091
0.081
0.105
0.095
0.064
0.03
0
-0.02
-0.037
-0.027
-0.014
-0.007
-0.027
-0.037
-0.014
0.017
0.02
0
-0.041
-0.071
-0.081
-0.088
-0.081
-0.068
-0.064
-0.074
-0.095
-0.108
-0.135
-0.155
-0.149
-0.101
-0.064
-0.054
-0.071
-0.084
-0.105
-0.135
-0.139
-0.108
-0.091
-0.095
-0.098
-0.081
-0.068
-0.095
-0.155
-0.196
-0.176
-0.122
-0.078
-0.061
-0.051
-0.037
-0.027
-0.041
-0.071
-0.108
-0.115
-0.101
-0.088
-0.081
-0.074
-0.064
-0.044
-0.027
-0.03
-0.061
-0.074
-0.078
-0.118
-0.139
-0.105
-0.034
0.037
0.068
0.014
-0.057
-0.068
-0.03
0
-0.003
-0.024
-0.034
-0.027
-0.024
-0.047
-0.084
-0.108
-0.115
-0.098
-0.071
-0.054
-0.037
-0.034
-0.054
-0.081
-0.091
-0.088
-0.084
-0.095
-0.108
-0.118
-0.118
-0.095
-0.061
-0.051
-0.051
-0.088
-0.132
-0.111
-0.051
0
0.014
0
-0.027
-0.051
-0.041
-0.007
0.003
-0.03
-0.071
-0.101
-0.125
-0.125
-0.115
-0.091
-0.068
-0.068
-0.081
-0.068
-0.037
-0.03
-0.027
-0.03
-0.054
-0.088
-0.091
-0.081
-0.088
-0.108
-0.115
-0.095
-0.061
-0.051
-0.044
-0.01
0.01
0.01
-0.003
-0.02
-0.044
-0.061
-0.078
-0.064
-0.027
-0.017
-0.027
-0.047
-0.105
-0.179
-0.186
-0.135
-0.057
-0.02
-0.027
-0.044
-0.044
-0.084
-0.166
-0.199
-0.166
-0.101
-0.037
0.014
0.024
-0.007
-0.041
-0.047
-0.041
-0.054
-0.091
-0.108
-0.091
-0.078
-0.074
-0.064
-0.037
-0.01
-0.007
-0.03
-0.054
-0.084
-0.098
-0.074
-0.037
-0.007
0.017
-0.014
-0.074
-0.084
-0.047
-0.027
-0.02
-0.024
-0.027
-0.041
-0.061
-0.061
-0.027
0.003
0.007
-0.007
-0.024
-0.041
-0.044
-0.014
0.02
0.024
-0.003
-0.027
-0.014
0.014
0.037
0.027
-0.01
-0.034
-0.03
-0.034
-0.054
-0.051
-0.024
0.02
0.041
0.02
0.003
-0.017
-0.051
-0.081
-0.098
-0.095
-0.091
-0.095
-0.091
-0.105
-0.101
-0.071
-0.051
-0.047
-0.044
-0.037
-0.034
-0.027
-0.027
-0.037
-0.081
-0.139
-0.139
-0.095
-0.047
0.003
0.105
0.247
0.436
0.635
0.791
0.845
0.78
0.672
0.581
0.51
0.402
0.223
0.01
-0.213
-0.436
-0.611
-0.689
-0.743
-0.814
-0.868
-0.882
-0.855
-0.838
-0.865
-0.926
-0.932
-0.885
-0.861
-0.889
-0.936
-0.966
-0.953
-0.919
-0.889
-0.855
-0.807
-0.74
-0.652
-0.568
-0.497
-0.422
-0.361
-0.318
-0.27
-0.216
-0.159
-0.105
-0.095
-0.111
-0.125
-0.118
-0.081
-0.024
0.02
0.044
0.044
0.03
0.007
0
-0.007
-0.014
-0.017
-0.014
0.007
0.054
0.078
0.057
0.024
0.01
0.017
0.034
0.044
0.054
0.064
0.064
0.064
0.071
0.074
0.068
0.074
0.084
0.084
0.054
0.027
0.054
0.122
0.186
0.213
0.226
0.233
0.25
0.28
0.304
0.297
0.267
0.253
0.307
0.395
0.473
0.51
0.51
0.493
0.486
0.514
0.568
0.615
0.669
0.662
0.595
0.568
0.601
0.635
0.635
0.595
0.564
0.561
0.551
0.524
0.493
0.466
0.419
0.378
0.348
0.314
0.284
0.247
0.226
0.223
0.196
0.152
0.105
0.078
0.057
0.041
0.034
0.037
0.037
0.027
0.03
0.034
0.014
0.007
0.03
0.047
0.03
-0.01
-0.034
-0.054
-0.084
-0.098
-0.095
-0.074
-0.034
-0.01
-0.02
-0.044
-0.081
-0.101
-0.081
-0.047
-0.034
-0.041
-0.051
-0.061
-0.068
-0.057
-0.024
-0.003
-0.01
-0.034
-0.047
-0.068
-0.098
-0.115
-0.095
-0.054
-0.034
-0.027
-0.024
-0.024
-0.027
-0.047
-0.081
-0.115
-0.145
-0.162
-0.155
-0.101
-0.041
-0.01
0
0.003
-0.01
-0.041
-0.064
-0.091
-0.118
-0.125
-0.105
-0.068
-0.037
-0.027
-0.03
-0.074
-0.125
-0.128
-0.081
-0.051
-0.054
-0.074
-0.081
-0.068
-0.057
-0.064
-0.057
-0.037
-0.034
-0.047
-0.068
-0.091
-0.108
-0.098
-0.064
-0.037
-0.044
-0.057
-0.071
-0.091
-0.111
-0.101
-0.071
-0.047
-0.074
-0.142
-0.182
-0.155
-0.122
-0.111
-0.095
-0.057
-0.034
-0.034
-0.047
-0.061
-0.074
-0.064
-0.047
-0.034
-0.027
-0.02
-0.02
-0.044
-0.071
-0.071
-0.047
-0.037
-0.061
-0.088
-0.095
-0.091
-0.081
-0.068
-0.064
-0.064
-0.061
-0.064
-0.078
-0.091
-0.071
-0.051
-0.071
-0.101
-0.108
-0.115
-0.128
-0.122
-0.108
-0.084
-0.064
-0.068
-0.078
-0.098
-0.125
-0.122
-0.105
-0.101
-0.101
-0.101
-0.108
-0.108
-0.101
-0.098
-0.101
-0.105
-0.115
-0.118
-0.101
-0.084
-0.074
-0.057
-0.037
-0.027
-0.047
-0.101
-0.139
-0.128
-0.098
-0.091
-0.078
-0.051
-0.037
-0.044
-0.051
-0.051
-0.061
-0.084
-0.101
-0.108
-0.108
-0.105
-0.108
-0.125
-0.128
-0.118
-0.101
-0.088
-0.078
-0.061
-0.041
-0.047
-0.084
-0.101
-0.108
-0.108
-0.101
-0.118
-0.139
-0.125
-0.078
-0.034
-0.02
-0.027
-0.037
-0.041
-0.037
-0.047
-0.057
-0.044
-0.03
-0.027
-0.003
0.02
0.02
0.02
0.017
0
-0.034
-0.03
-0.007
0
-0.014
-0.027
-0.041
-0.057
-0.064
-0.047
-0.03
-0.037
-0.054
-0.044
-0.017
0.003
0.003
-0.014
-0.054
-0.098
-0.149
-0.213
-0.236
-0.196
-0.135
-0.098
-0.081
-0.091
-0.111
-0.118
-0.108
-0.098
-0.108
-0.135
-0.155
-0.155
-0.132
-0.111
-0.091
-0.054
-0.017
0.047
0.145
0.267
0.419
0.591
0.743
0.76
0.642
0.541
0.493
0.416
0.253
0.03
-0.189
-0.385
-0.591
-0.76
-0.831
-0.821
-0.807
-0.824
-0.872
-0.905
-0.912
-0.892
-0.895
-0.932
-0.966
-0.959
-0.939
-0.926
-0.946
-0.983
-1.007
-0.98
-0.929
-0.848
-0.753
-0.662
-0.588
-0.507
-0.432
-0.361
-0.284
-0.223
-0.182
-0.132
-0.095
-0.088
-0.081
-0.074
-0.064
-0.051
-0.078
-0.122
-0.145
-0.118
-0.071
-0.03
-0.037
-0.054
-0.081
-0.115
-0.145
-0.145
-0.098
-0.037
0
0.003
-0.01
-0.02
-0.037
-0.047
-0.02
0.007
0.017
0.014
-0.014
-0.074
-0.074
0.03
0.155
0.226
0.213
0.145
0.084
0.057
0.084
0.149
0.216
0.253
0.247
0.22
0.213
0.226
0.236
0.267
0.324
0.372
0.412
0.436
0.453
0.473
0.503
0.527
0.544
0.554
0.557
0.557
0.551
0.534
0.52
0.503
0.486
0.517
0.581
0.618
0.588
0.51
0.449
0.432
0.422
0.399
0.365
0.314
0.26
0.287
0.348
0.334
0.257
0.169
0.088
0.047
0.034
0.034
0.027
0.027
0.034
0.03
0.024
0.024
0.034
0.02
-0.03
-0.081
-0.108
-0.115
-0.115
-0.108
-0.098
-0.068
-0.037
-0.041
-0.061
-0.074
-0.081
-0.071
-0.044
-0.034
-0.047
-0.054
-0.051
-0.074
-0.135
-0.162
-0.128
-0.081
-0.051
-0.047
-0.068
-0.098
-0.111
-0.098
-0.081
-0.064
-0.034
-0.01
-0.007
-0.03
-0.061
-0.081
-0.098
-0.105
-0.098
-0.095
-0.095
-0.088
-0.071
-0.081
-0.098
-0.074
-0.051
-0.047
-0.071
-0.108
-0.128
-0.132
-0.132
-0.132
-0.118
-0.101
-0.095
-0.105
-0.128
-0.142
-0.122
-0.081
-0.071
-0.081
-0.091
-0.095
-0.078
-0.064
-0.051
-0.054
-0.081
-0.095
-0.095
-0.091
-0.091
-0.078
-0.071
-0.068
-0.068
-0.064
-0.068
-0.074
-0.084
-0.088
-0.091
-0.091
-0.091
-0.091
-0.088
-0.088
-0.084
-0.084
-0.091
-0.095
-0.095
-0.091
-0.088
-0.084
-0.081
-0.084
-0.088
-0.091
-0.105
-0.122
-0.118
-0.091
-0.074
-0.074
-0.071
-0.068
-0.064
-0.057
-0.057
-0.057
-0.064
-0.088
-0.111
-0.128
-0.118
-0.081
-0.061
-0.095
-0.125
-0.115
-0.088
-0.057
-0.037
-0.027
-0.024
-0.02
-0.017
-0.01
-0.017
-0.047
-0.078
-0.084
-0.054
-0.02
0
-0.01
-0.01
0
0
0
-0.007
-0.014
-0.017
-0.017
-0.017
-0.017
-0.017
-0.03
-0.061
-0.108
-0.135
-0.142
-0.152
-0.193
-0.209
-0.176
-0.125
-0.108
-0.118
-0.135
-0.142
-0.139
-0.122
-0.101
-0.098
-0.115
-0.135
-0.172
-0.186
-0.139
-0.051
0.037
0.105
0.169
0.253
0.365
0.497
0.625
0.659
0.568
0.422
0.284
0.145
0.007
-0.132
-0.348
-0.608
-0.818
-0.919
-0.943
-0.932
-0.902
-0.882
-0.892
-0.909
-0.909
-0.902
-0.909
-0.905
-0.872
-0.851
-0.865
-0.916
-0.97
-1.01
-1.017
-0.986
-0.912
-0.804
-0.686
-0.618
-0.581
-0.537
-0.49
-0.456
-0.402
-0.297
-0.209
-0.193
-0.193
-0.166
-0.125
-0.098
-0.091
-0.098
-0.095
-0.088
-0.098
-0.101
-0.101
-0.108
-0.108
-0.101
-0.095
-0.088
-0.074
-0.051
-0.054
-0.061
-0.054
-0.041
-0.03
-0.003
0.014
0.03
0.047
0.064
0.064
0.047
0
-0.061
-0.061
-0.003
0.037
0.054
0.057
0.034
0.017
0.03
0.068
0.115
0.155
0.169
0.172
0.193
0.233
0.25
0.24
0.226
0.24
0.267
0.291
0.318
0.328
0.351
0.405
0.493
0.554
0.578
0.591
0.628
0.669
0.689
0.655
0.584
0.5
0.453
0.449
0.473
0.5
0.49
0.463
0.429
0.365
0.264
0.182
0.152
0.142
0.139
0.118
0.091
0.071
0.074
0.068
0.047
0.003
-0.027
-0.02
-0.027
-0.061
-0.111
-0.159
-0.172
-0.152
-0.118
-0.091
-0.074
-0.081
-0.101
-0.125
-0.132
-0.128
-0.128
-0.108
-0.071
-0.057
-0.071
-0.101
-0.145
-0.213
-0.264
-0.27
-0.243
-0.199
-0.162
-0.142
-0.132
-0.135
-0.125
-0.091
-0.061
-0.071
-0.142
-0.223
-0.267
-0.267
-0.233
-0.216
-0.223
-0.23
-0.24
-0.28
-0.304
-0.277
-0.196
-0.128
-0.108
-0.115
-0.122
-0.128
-0.135
-0.159
-0.182
-0.189
-0.152
-0.108
-0.071
-0.02
0.01
-0.034
-0.125
-0.189
-0.206
-0.203
-0.213
-0.216
-0.213
-0.209
-0.199
-0.172
-0.152
-0.159
-0.172
-0.182
-0.176
-0.179
-0.189
-0.176
-0.159
-0.172
-0.182
-0.172
-0.149
-0.139
-0.152
-0.169
-0.179
-0.189
-0.189
-0.179
-0.176
-0.189
-0.193
-0.172
-0.179
-0.209
-0.22
-0.199
-0.169
-0.152
-0.152
-0.155
-0.152
-0.155
-0.166
-0.179
-0.193
-0.189
-0.189
-0.189
-0.172
-0.149
-0.132
-0.135
-0.155
-0.176
-0.193
-0.209
-0.243
-0.243
-0.186
-0.108
-0.095
-0.142
-0.199
-0.226
-0.206
-0.159
-0.128
-0.132
-0.169
-0.223
-0.257
-0.27
-0.257
-0.23
-0.199
-0.176
-0.179
-0.189
-0.193
-0.179
-0.166
-0.155
-0.145
-0.142
-0.149
-0.155
-0.149
-0.142
-0.152
-0.176
-0.209
-0.233
-0.236
-0.236
-0.203
-0.159
-0.128
-0.135
-0.162
-0.182
-0.179
-0.169
-0.186
-0.226
-0.233
-0.196
-0.166
-0.172
-0.213
-0.247
-0.25
-0.24
-0.216
-0.189
-0.169
-0.169
-0.189
-0.206
-0.206
-0.189
-0.169
-0.159
-0.166
-0.176
-0.169
-0.169
-0.176
-0.179
-0.169
-0.162
-0.172
-0.189
-0.199
-0.193
-0.182
-0.172
-0.172
-0.179
-0.193
-0.189
-0.162
-0.132
-0.128
-0.145
-0.169
-0.169
-0.152
-0.155
-0.179
-0.216
-0.243
-0.236
-0.209
-0.193
-0.189
-0.203
-0.203
-0.193
-0.179
-0.162
-0.142
-0.125
-0.135
-0.172
-0.213
-0.233
-0.209
-0.152
-0.115
-0.132
-0.162
-0.172
-0.186
-0.216
-0.236
-0.24
-0.243
-0.23
-0.186
-0.125
-0.088
-0.091
-0.115
-0.108
-0.091
-0.068
-0.044
-0.057
-0.101
-0.132
-0.122
-0.081
-0.044
-0.027
-0.024
-0.034
-0.03
-0.014
0
-0.014
-0.051
-0.101
-0.135
-0.145
-0.155
-0.155
-0.149
-0.139
-0.135
-0.149
-0.169
-0.196
-0.22
-0.253
-0.27
-0.236
-0.172
-0.135
-0.135
-0.145
-0.159
-0.176
-0.182
-0.186
-0.193
-0.213
-0.213
-0.189
-0.182
-0.182
-0.166
-0.125
-0.02
0.101
0.233
0.358
0.5
0.639
0.686
0.615
0.514
0.422
0.331
0.199
0.014
-0.213
-0.439
-0.662
-0.811
-0.868
-0.878
-0.858
-0.838
-0.848
-0.895
-0.946
-0.966
-0.973
-0.986
-0.99
-0.993
-1.02
-1.054
-1.034
-0.966
-0.905
-0.892
-0.892
-0.875
-0.811
-0.716
-0.611
-0.517
-0.453
-0.426
-0.405
-0.392
-0.368
-0.321
-0.27
-0.23
-0.196
-0.169
-0.149
-0.139
-0.142
-0.149
-0.159
-0.145
-0.132
-0.145
-0.155
-0.135
-0.088
-0.051
-0.03
-0.034
-0.051
-0.084
-0.128
-0.145
-0.152
-0.142
-0.098
-0.047
-0.024
0
0
-0.024
-0.047
-0.057
-0.047
-0.017
0.017
0.037
0.03
0.02
0.03
0.047
0.068
0.088
0.108
0.128
0.155
0.182
0.203
0.233
0.257
0.27
0.284
0.301
0.307
0.328
0.358
0.399
0.436
0.466
0.486
0.507
0.517
0.537
0.534
0.524
0.52
0.52
0.517
0.507
0.483
0.459
0.436
0.419
0.405
0.372
0.311
0.267
0.24
0.226
0.213
0.186
0.145
0.098
0.061
0.054
0.071
0.081
0.088
0.084
0.071
0.034
-0.007
-0.03
-0.047
-0.071
-0.098
-0.108
-0.101
-0.091
-0.098
-0.101
-0.088
-0.078
-0.078
-0.088
-0.118
-0.149
-0.196
-0.216
-0.186
-0.139
-0.115
-0.105
-0.091
-0.064
-0.047
-0.054
-0.074
-0.101
-0.115
-0.115
-0.118
-0.115
-0.122
-0.111
-0.091
-0.091
-0.105
-0.101
-0.088
-0.068
-0.081
-0.115
-0.135
-0.128
-0.122
-0.108
-0.095
-0.088
-0.088
-0.095
-0.091
-0.078
-0.074
-0.095
-0.115
-0.125
-0.128
-0.122
-0.108
-0.105
-0.115
-0.098
-0.064
-0.041
-0.034
-0.037
-0.051
-0.074
-0.098
-0.111
-0.125
-0.145
-0.145
-0.135
-0.125
-0.122
-0.122
-0.128
-0.132
-0.108
-0.061
-0.037
-0.068
-0.118
-0.125
-0.084
-0.037
-0.01
-0.017
-0.044
-0.074
-0.084
-0.088
-0.111
-0.145
-0.166
-0.162
-0.139
-0.118
-0.108
-0.108
-0.115
-0.101
-0.095
-0.118
-0.135
-0.125
-0.088
-0.047
-0.037
-0.071
-0.105
-0.122
-0.118
-0.115
-0.105
-0.091
-0.084
-0.081
-0.081
-0.101
-0.122
-0.128
-0.088
-0.041
-0.02
-0.027
-0.054
-0.078
-0.081
-0.081
-0.095
-0.118
-0.142
-0.155
-0.155
-0.152
-0.142
-0.139
-0.122
-0.118
-0.125
-0.115
-0.098
-0.091
-0.095
-0.101
-0.108
-0.122
-0.149
-0.149
-0.122
-0.095
-0.095
-0.108
-0.122
-0.128
-0.122
-0.115
-0.098
-0.081
-0.068
-0.057
-0.064
-0.081
-0.095
-0.105
-0.108
-0.095
-0.095
-0.095
-0.095
-0.098
-0.108
-0.122
-0.122
-0.118
-0.111
-0.108
-0.098
-0.088
-0.081
-0.088
-0.091
-0.098
-0.095
-0.071
-0.061
-0.068
-0.078
-0.095
-0.108
-0.118
-0.132
-0.149
-0.166
-0.139
-0.101
-0.068
-0.044
-0.051
-0.071
-0.078
-0.054
-0.027
-0.03
-0.044
-0.061
-0.078
-0.088
-0.091
-0.074
-0.034
0
0.024
0.027
0.003
-0.014
-0.017
-0.01
-0.007
-0.01
-0.014
-0.003
0
0
0
-0.017
-0.044
-0.071
-0.095
-0.108
-0.091
-0.047
-0.027
-0.037
-0.068
-0.105
-0.135
-0.145
-0.149
-0.142
-0.128
-0.118
-0.125
-0.128
-0.122
-0.118
-0.128
-0.132
-0.122
-0.101
-0.088
-0.068
-0.037
-0.024
0.007
0.118
0.277
0.419
0.524
0.635
0.703
0.682
0.605
0.51
0.402
0.25
0.044
-0.179
-0.389
-0.581
-0.747
-0.828
-0.845
-0.834
-0.841
-0.868
-0.902
-0.939
-0.973
-0.986
-0.966
-0.939
-0.946
-0.976
-0.99
-0.99
-0.98
-0.98
-0.973
-0.936
-0.865
-0.757
-0.652
-0.571
-0.493
-0.419
-0.341
-0.277
-0.243
-0.223
-0.182
-0.135
-0.108
-0.111
-0.118
-0.105
-0.071
-0.037
-0.044
-0.095
-0.128
-0.101
-0.071
-0.051
-0.047
-0.044
-0.027
-0.007
-0.003
0
0.007
0.01
0.017
0.03
0.034
0.02
-0.014
-0.044
-0.024
0.03
0.078
0.068
0.017
-0.02
-0.02
0.01
0.041
0.057
0.064
0.078
0.101
0.118
0.118
0.105
0.078
0.122
0.22
0.324
0.365
0.358
0.368
0.426
0.459
0.466
0.449
0.449
0.49
0.53
0.551
0.561
0.581
0.608
0.605
0.591
0.598
0.615
0.598
0.561
0.534
0.527
0.517
0.507
0.483
0.449
0.422
0.402
0.365
0.328
0.297
0.28
0.26
0.247
0.233
0.196
0.132
0.074
0.041
0.037
0.051
0.057
0.041
0.024
0.027
0.024
-0.003
-0.037
-0.054
-0.068
-0.084
-0.088
-0.098
-0.091
-0.061
-0.024
0.01
0.041
0.034
-0.003
-0.047
-0.081
-0.105
-0.101
-0.064
-0.044
-0.078
-0.115
-0.115
-0.095
-0.078
-0.064
-0.051
-0.047
-0.044
-0.027
-0.024
-0.03
-0.047
-0.078
-0.101
-0.105
-0.091
-0.064
-0.054
-0.068
-0.084
-0.095
-0.091
-0.071
-0.057
-0.037
-0.014
-0.014
-0.034
-0.057
-0.091
-0.128
-0.169
-0.179
-0.159
-0.132
-0.128
-0.142
-0.122
-0.051
0.014
0.02
-0.014
-0.054
-0.074
-0.084
-0.088
-0.081
-0.074
-0.071
-0.068
-0.068
-0.068
-0.068
-0.081
-0.091
-0.098
-0.108
-0.105
-0.081
-0.061
-0.041
-0.02
-0.017
-0.027
-0.041
-0.057
-0.061
-0.061
-0.064
-0.071
-0.074
-0.071
-0.068
-0.068
-0.078
-0.101
-0.125
-0.142
-0.142
-0.128
-0.108
-0.084
-0.074
-0.078
-0.088
-0.098
-0.111
-0.125
-0.108
-0.081
-0.074
-0.088
-0.108
-0.115
-0.088
-0.054
-0.041
-0.071
-0.122
-0.149
-0.128
-0.084
-0.068
-0.091
-0.128
-0.135
-0.108
-0.078
-0.068
-0.071
-0.091
-0.115
-0.101
-0.064
-0.037
-0.027
-0.034
-0.051
-0.064
-0.084
-0.101
-0.098
-0.081
-0.081
-0.105
-0.118
-0.115
-0.088
-0.064
-0.057
-0.071
-0.091
-0.101
-0.105
-0.101
-0.101
-0.101
-0.122
-0.135
-0.125
-0.091
-0.084
-0.101
-0.135
-0.155
-0.155
-0.142
-0.139
-0.128
-0.101
-0.061
-0.041
-0.037
-0.057
-0.081
-0.088
-0.081
-0.068
-0.044
-0.034
-0.017
-0.014
-0.051
-0.108
-0.142
-0.132
-0.091
-0.091
-0.115
-0.135
-0.145
-0.149
-0.135
-0.118
-0.115
-0.125
-0.128
-0.122
-0.118
-0.139
-0.166
-0.176
-0.186
-0.193
-0.155
-0.098
-0.084
-0.125
-0.155
-0.132
-0.081
-0.064
-0.081
-0.108
-0.115
-0.091
-0.078
-0.088
-0.118
-0.132
-0.091
-0.044
-0.024
-0.027
-0.037
-0.041
-0.047
-0.051
-0.054
-0.064
-0.078
-0.095
-0.084
-0.068
-0.051
-0.03
-0.017
-0.027
-0.051
-0.074
-0.071
-0.054
-0.054
-0.074
-0.101
-0.098
-0.051
-0.01
0
-0.017
-0.044
-0.081
-0.125
-0.162
-0.189
-0.206
-0.203
-0.172
-0.145
-0.135
-0.135
-0.128
-0.128
-0.166
-0.193
-0.182
-0.162
-0.159
-0.166
-0.169
-0.149
-0.115
-0.088
-0.071
-0.051
0.017
0.145
0.284
0.405
0.52
0.622
0.649
0.581
0.453
0.321
0.209
0.078
-0.128
-0.389
-0.625
-0.804
-0.902
-0.946
-0.983
-1
-1
-0.997
-0.98
-0.946
-0.926
-0.912
-0.905
-0.912
-0.922
-0.946
-0.976
-0.99
-0.997
-0.976
-0.936
-0.889
-0.824
-0.726
-0.632
-0.568
-0.497
-0.395
-0.307
-0.264
-0.26
-0.27
-0.27
-0.267
-0.264
-0.233
-0.179
-0.142
-0.142
-0.145
-0.145
-0.159
-0.162
-0.139
-0.101
-0.081
-0.081
-0.095
-0.108
-0.115
-0.081
-0.024
-0.003
-0.02
-0.047
-0.074
-0.084
-0.071
-0.061
-0.047
-0.034
-0.017
0.007
0.014
0
-0.017
-0.024
-0.02
0
0.02
0.034
0.057
0.084
0.098
0.084
0.064
0.064
0.105
0.166
0.223
0.257
0.257
0.226
0.223
0.27
0.328
0.365
0.389
0.412
0.436
0.439
0.432
0.439
0.473
0.483
0.483
0.493
0.503
0.503
0.514
0.524
0.53
0.5
0.446
0.412
0.402
0.378
0.361
0.321
0.267
0.22
0.189
0.162
0.132
0.118
0.142
0.182
0.169
0.101
0.024
-0.03
-0.051
-0.057
-0.047
-0.034
-0.024
-0.027
-0.037
-0.054
-0.078
-0.098
-0.101
-0.108
-0.132
-0.122
-0.098
-0.081
-0.098
-0.142
-0.169
-0.176
-0.159
-0.139
-0.132
-0.128
-0.111
-0.108
-0.108
-0.122
-0.145
-0.162
-0.155
-0.142
-0.152
-0.176
-0.179
-0.169
-0.142
-0.115
-0.091
-0.095
-0.108
-0.111
-0.115
-0.125
-0.139
-0.139
-0.132
-0.122
-0.101
-0.084
-0.098
-0.115
-0.111
-0.108
-0.118
-0.135
-0.142
-0.128
-0.095
-0.074
-0.074
-0.091
-0.105
-0.118
-0.132
-0.142
-0.149
-0.145
-0.125
-0.098
-0.074
-0.068
-0.081
-0.111
-0.149
-0.172
-0.182
-0.196
-0.196
-0.186
-0.166
-0.139
-0.115
-0.108
-0.108
-0.101
-0.105
-0.135
-0.166
-0.166
-0.152
-0.145
-0.132
-0.101
-0.071
-0.041
-0.041
-0.101
-0.176
-0.199
-0.169
-0.132
-0.122
-0.142
-0.159
-0.162
-0.145
-0.118
-0.091
-0.088
-0.115
-0.142
-0.145
-0.125
-0.108
-0.101
-0.105
-0.122
-0.132
-0.135
-0.139
-0.145
-0.155
-0.176
-0.179
-0.166
-0.162
-0.155
-0.159
-0.159
-0.155
-0.145
-0.132
-0.111
-0.105
-0.132
-0.145
-0.135
-0.115
-0.125
-0.145
-0.159
-0.149
-0.125
-0.118
-0.132
-0.135
-0.132
-0.115
-0.108
-0.128
-0.159
-0.182
-0.179
-0.159
-0.142
-0.149
-0.162
-0.166
-0.179
-0.189
-0.209
-0.186
-0.118
-0.071
-0.061
-0.068
-0.101
-0.152
-0.182
-0.162
-0.101
-0.071
-0.071
-0.054
-0.037
-0.041
-0.054
-0.047
-0.034
-0.037
-0.054
-0.057
-0.057
-0.054
-0.047
-0.051
-0.057
-0.068
-0.081
-0.098
-0.105
-0.098
-0.084
-0.084
-0.095
-0.108
-0.118
-0.135
-0.145
-0.152
-0.162
-0.159
-0.162
-0.169
-0.186
-0.199
-0.189
-0.162
-0.142
-0.139
-0.166
-0.193
-0.203
-0.182
-0.155
-0.149
-0.172
-0.182
-0.125
-0.003
0.132
0.26
0.372
0.476
0.568
0.595
0.537
0.416
0.25
0.095
-0.034
-0.155
-0.324
-0.534
-0.747
-0.875
-0.909
-0.905
-0.899
-0.912
-0.939
-0.953
-0.936
-0.909
-0.895
-0.902
-0.905
-0.905
-0.909
-0.916
-0.932
-0.959
-0.97
-0.939
-0.889
-0.848
-0.804
-0.743
-0.662
-0.578
-0.514
-0.459
-0.412
-0.392
-0.351
-0.291
-0.216
-0.166
-0.159
-0.182
-0.206
-0.196
-0.155
-0.115
-0.091
-0.108
-0.135
-0.135
-0.122
-0.108
-0.105
-0.091
-0.071
-0.064
-0.074
-0.081
-0.071
-0.051
-0.041
-0.047
-0.047
-0.03
-0.003
0
-0.024
-0.037
-0.014
0.03
0.044
0.024
0
0.003
0.037
0.095
0.125
0.125
0.108
0.098
0.108
0.135
0.162
0.193
0.206
0.213
0.223
0.24
0.267
0.304
0.341
0.375
0.399
0.436
0.453
0.446
0.443
0.473
0.52
0.551
0.541
0.527
0.517
0.51
0.493
0.486
0.486
0.49
0.48
0.463
0.426
0.382
0.338
0.304
0.27
0.243
0.233
0.226
0.216
0.179
0.118
0.064
0.027
0.01
0
-0.02
-0.044
-0.061
-0.074
-0.078
-0.081
-0.088
-0.095
-0.105
-0.125
-0.125
-0.091
-0.061
-0.054
-0.061
-0.088
-0.098
-0.088
-0.098
-0.132
-0.145
-0.128
-0.108
-0.105
-0.108
-0.108
-0.101
-0.098
-0.098
-0.091
-0.074
-0.064
-0.051
-0.054
-0.088
-0.125
-0.135
-0.128
-0.115
-0.108
-0.095
-0.081
-0.084
-0.115
-0.145
-0.159
-0.152
-0.142
-0.125
-0.118
-0.108
-0.091
-0.078
-0.074
-0.088
-0.108
-0.118
-0.115
-0.108
-0.118
-0.128
-0.132
-0.115
-0.088
-0.064
-0.061
-0.057
-0.044
-0.047
-0.078
-0.091
-0.091
-0.091
-0.095
-0.095
-0.098
-0.105
-0.108
-0.118
-0.132
-0.142
-0.145
-0.142
-0.132
-0.122
-0.105
-0.088
-0.074
-0.078
-0.101
-0.122
-0.125
-0.115
-0.108
-0.101
-0.108
-0.115
-0.118
-0.135
-0.128
-0.081
-0.017
0.007
-0.041
-0.108
-0.135
-0.118
-0.105
-0.105
-0.128
-0.162
-0.189
-0.166
-0.115
-0.071
-0.064
-0.081
-0.095
-0.084
-0.084
-0.098
-0.108
-0.118
-0.125
-0.125
-0.132
-0.139
-0.139
-0.122
-0.088
-0.061
-0.061
-0.057
-0.054
-0.064
-0.101
-0.128
-0.142
-0.169
-0.176
-0.152
-0.115
-0.081
-0.074
-0.088
-0.101
-0.115
-0.125
-0.149
-0.186
-0.209
-0.189
-0.135
-0.091
-0.068
-0.061
-0.084
-0.128
-0.152
-0.152
-0.128
-0.105
-0.098
-0.111
-0.128
-0.132
-0.125
-0.122
-0.115
-0.105
-0.098
-0.098
-0.084
-0.081
-0.091
-0.095
-0.091
-0.105
-0.115
-0.118
-0.122
-0.135
-0.139
-0.135
-0.128
-0.132
-0.145
-0.162
-0.169
-0.176
-0.176
-0.169
-0.152
-0.135
-0.122
-0.128
-0.135
-0.125
-0.111
-0.132
-0.169
-0.166
-0.118
-0.084
-0.091
-0.125
-0.152
-0.166
-0.142
-0.095
-0.061
-0.054
-0.054
-0.078
-0.105
-0.135
-0.155
-0.166
-0.162
-0.139
-0.091
-0.068
-0.081
-0.084
-0.071
-0.057
-0.047
-0.051
-0.064
-0.081
-0.074
-0.054
-0.034
-0.014
0
-0.007
-0.01
-0.017
-0.037
-0.054
-0.054
-0.061
-0.071
-0.078
-0.078
-0.071
-0.068
-0.064
-0.061
-0.074
-0.091
-0.115
-0.142
-0.159
-0.166
-0.176
-0.179
-0.169
-0.166
-0.189
-0.199
-0.179
-0.139
-0.125
-0.139
-0.162
-0.179
-0.172
-0.149
-0.128
-0.108
-0.081
-0.051
-0.01
0.061
0.182
0.328
0.48
0.622
0.689
0.655
0.53
0.392
0.294
0.203
0.044
-0.149
-0.341
-0.534
-0.716
-0.818
-0.838
-0.818
-0.821
-0.878
-0.943
-0.963
-0.959
-0.97
-0.963
-0.963
-0.976
-0.993
-1.003
-1.007
-1.003
-1.003
-0.976
-0.916
-0.831
-0.73
-0.652
-0.618
-0.588
-0.537
-0.446
-0.334
-0.25
-0.216
-0.209
-0.209
-0.206
-0.182
-0.152
-0.125
-0.122
-0.128
-0.128
-0.128
-0.145
-0.142
-0.128
-0.108
-0.101
-0.101
-0.098
-0.074
-0.051
-0.051
-0.078
-0.084
-0.068
-0.027
-0.007
-0.007
-0.014
-0.03
-0.037
-0.027
-0.01
0.007
0.007
0
-0.014
-0.017
-0.007
0.014
0.047
0.084
0.115
0.139
0.152
0.155
0.159
0.162
0.152
0.149
0.182
0.236
0.28
0.331
0.368
0.372
0.355
0.375
0.439
0.483
0.483
0.483
0.49
0.5
0.5
0.524
0.537
0.544
0.527
0.49
0.47
0.497
0.537
0.544
0.514
0.463
0.416
0.385
0.365
0.348
0.304
0.257
0.22
0.199
0.169
0.128
0.081
0.051
0.041
0.037
0.024
0.01
-0.01
-0.041
-0.064
-0.061
-0.047
-0.03
-0.027
-0.03
-0.041
-0.054
-0.088
-0.098
-0.095
-0.084
-0.088
-0.091
-0.091
-0.088
-0.081
-0.088
-0.101
-0.095
-0.078
-0.057
-0.047
-0.057
-0.088
-0.108
-0.115
-0.108
-0.122
-0.145
-0.162
-0.172
-0.176
-0.159
-0.135
-0.111
-0.108
-0.128
-0.152
-0.159
-0.128
-0.084
-0.061
-0.041
-0.03
-0.034
-0.051
-0.071
-0.101
-0.115
-0.115
-0.108
-0.108
-0.088
-0.091
-0.118
-0.152
-0.152
-0.118
-0.078
-0.068
-0.071
-0.074
-0.074
-0.105
-0.142
-0.169
-0.152
-0.108
-0.074
-0.095
-0.128
-0.149
-0.142
-0.125
-0.098
-0.081
-0.074
-0.078
-0.081
-0.098
-0.118
-0.142
-0.159
-0.179
-0.172
-0.145
-0.115
-0.115
-0.135
-0.132
-0.101
-0.088
-0.084
-0.091
-0.084
-0.078
-0.074
-0.088
-0.118
-0.166
-0.172
-0.139
-0.105
-0.091
-0.091
-0.105
-0.115
-0.115
-0.108
-0.115
-0.108
-0.105
-0.128
-0.152
-0.159
-0.145
-0.132
-0.125
-0.115
-0.111
-0.125
-0.135
-0.132
-0.145
-0.145
-0.108
-0.064
-0.051
-0.068
-0.111
-0.155
-0.176
-0.162
-0.139
-0.128
-0.142
-0.152
-0.139
-0.118
-0.118
-0.139
-0.155
-0.152
-0.135
-0.108
-0.088
-0.095
-0.149
-0.186
-0.172
-0.139
-0.122
-0.118
-0.125
-0.128
-0.132
-0.122
-0.115
-0.108
-0.108
-0.108
-0.115
-0.115
-0.128
-0.135
-0.152
-0.162
-0.159
-0.145
-0.125
-0.098
-0.084
-0.091
-0.122
-0.135
-0.128
-0.122
-0.139
-0.166
-0.182
-0.176
-0.152
-0.118
-0.115
-0.128
-0.142
-0.149
-0.128
-0.095
-0.098
-0.118
-0.135
-0.128
-0.108
-0.101
-0.105
-0.108
-0.111
-0.105
-0.111
-0.132
-0.155
-0.172
-0.166
-0.142
-0.118
-0.101
-0.095
-0.088
-0.091
-0.108
-0.135
-0.145
-0.142
-0.122
-0.115
-0.132
-0.132
-0.105
-0.084
-0.081
-0.091
-0.098
-0.105
-0.111
-0.125
-0.128
-0.128
-0.118
-0.098
-0.074
-0.051
-0.037
-0.03
-0.014
-0.007
-0.024
-0.064
-0.091
-0.098
-0.081
-0.071
-0.061
-0.054
-0.057
-0.078
-0.095
-0.101
-0.105
-0.105
-0.095
-0.084
-0.084
-0.098
-0.111
-0.125
-0.135
-0.159
-0.193
-0.213
-0.213
-0.196
-0.162
-0.132
-0.095
-0.054
-0.037
-0.057
-0.105
-0.149
-0.169
-0.166
-0.155
-0.145
-0.132
-0.118
-0.074
0
0.128
0.284
0.453
0.615
0.726
0.696
0.564
0.419
0.297
0.176
0.007
-0.193
-0.392
-0.598
-0.764
-0.851
-0.878
-0.892
-0.912
-0.926
-0.926
-0.922
-0.929
-0.953
-0.983
-1
-1.01
-1.014
-1.017
-1.01
-0.99
-0.963
-0.956
-0.946
-0.905
-0.834
-0.743
-0.649
-0.554
-0.473
-0.399
-0.328
-0.284
-0.243
-0.199
-0.189
-0.199
-0.206
-0.203
-0.189
-0.172
-0.162
-0.132
-0.101
-0.078
-0.084
-0.108
-0.125
-0.108
-0.091
-0.084
-0.081
-0.054
-0.047
-0.071
-0.108
-0.118
-0.095
-0.061
-0.034
-0.027
-0.037
-0.037
-0.024
0
-0.007
-0.017
-0.014
0
-0.007
-0.024
-0.014
0.03
0.041
0
-0.007
0.071
0.172
0.223
0.233
0.23
0.22
0.226
0.25
0.274
0.291
0.307
0.328
0.345
0.355
0.382
0.426
0.466
0.473
0.47
0.476
0.497
0.51
0.514
0.514
0.524
0.554
0.595
0.581
0.534
0.476
0.432
0.402
0.392
0.382
0.358
0.301
0.24
0.206
0.196
0.176
0.152
0.125
0.098
0.068
0.064
0.071
0.051
0.024
-0.003
-0.03
-0.051
-0.061
-0.061
-0.064
-0.064
-0.074
-0.091
-0.108
-0.101
-0.081
-0.074
-0.084
-0.081
-0.061
-0.051
-0.071
-0.098
-0.132
-0.145
-0.118
-0.088
-0.091
-0.101
-0.139
-0.179
-0.189
-0.155
-0.135
-0.142
-0.159
-0.145
-0.135
-0.122
-0.111
-0.128
-0.155
-0.179
-0.172
-0.139
-0.108
-0.095
-0.098
-0.108
-0.118
-0.122
-0.132
-0.142
-0.155
-0.142
-0.108
-0.081
-0.061
-0.061
-0.078
-0.095
-0.108
-0.122
-0.149
-0.162
-0.149
-0.101
-0.074
-0.091
-0.142
-0.186
-0.199
-0.186
-0.169
-0.169
-0.186
-0.179
-0.155
-0.122
-0.108
-0.135
-0.193
-0.206
-0.152
-0.084
-0.057
-0.081
-0.122
-0.135
-0.132
-0.145
-0.169
-0.162
-0.142
-0.135
-0.142
-0.149
-0.142
-0.132
-0.142
-0.142
-0.122
-0.115
-0.132
-0.152
-0.159
-0.145
-0.135
-0.125
-0.128
-0.139
-0.152
-0.155
-0.142
-0.135
-0.159
-0.186
-0.196
-0.166
-0.132
-0.118
-0.125
-0.142
-0.172
-0.176
-0.166
-0.162
-0.162
-0.155
-0.145
-0.135
-0.149
-0.166
-0.169
-0.159
-0.155
-0.149
-0.145
-0.135
-0.135
-0.142
-0.155
-0.169
-0.179
-0.176
-0.169
-0.159
-0.152
-0.135
-0.128
-0.132
-0.128
-0.122
-0.145
-0.142
-0.115
-0.108
-0.132
-0.162
-0.189
-0.193
-0.189
-0.169
-0.155
-0.159
-0.172
-0.169
-0.162
-0.162
-0.172
-0.179
-0.182
-0.169
-0.139
-0.122
-0.128
-0.149
-0.182
-0.216
-0.213
-0.159
-0.108
-0.095
-0.118
-0.142
-0.159
-0.162
-0.162
-0.159
-0.145
-0.135
-0.128
-0.101
-0.091
-0.122
-0.176
-0.213
-0.22
-0.199
-0.159
-0.122
-0.111
-0.118
-0.135
-0.128
-0.108
-0.095
-0.088
-0.078
-0.074
-0.091
-0.115
-0.095
-0.047
-0.034
-0.068
-0.105
-0.105
-0.074
-0.064
-0.074
-0.105
-0.142
-0.162
-0.145
-0.128
-0.115
-0.118
-0.128
-0.142
-0.166
-0.196
-0.193
-0.155
-0.115
-0.122
-0.155
-0.186
-0.182
-0.162
-0.159
-0.162
-0.166
-0.172
-0.172
-0.145
-0.125
-0.155
-0.213
-0.25
-0.233
-0.209
-0.169
-0.128
-0.095
-0.054
0.037
0.186
0.348
0.486
0.588
0.601
0.524
0.402
0.264
0.142
0.044
-0.088
-0.277
-0.51
-0.73
-0.868
-0.919
-0.939
-0.946
-0.953
-0.956
-0.953
-0.939
-0.922
-0.919
-0.912
-0.895
-0.889
-0.905
-0.939
-0.97
-0.973
-0.949
-0.905
-0.861
-0.848
-0.855
-0.838
-0.764
-0.662
-0.571
-0.493
-0.412
-0.341
-0.304
-0.287